
PyNAT: Righting Lever (GZ) Curve Data
Mass Displacement=312000000.000000
VCG (KG) = 17.000000
Heel Angle	GZ        	
 0.000E+00	 6.548E-16	
 5.000E+00	 6.425E-01	
 1.000E+01	 1.310E+00	
 1.500E+01	 2.020E+00	
 2.000E+01	 2.512E+00	
 2.500E+01	 2.724E+00	
 3.000E+01	 2.746E+00	
 3.500E+01	 2.673E+00	
 4.000E+01	 2.496E+00	
 4.500E+01	 2.212E+00	
 5.000E+01	 1.846E+00	
 5.500E+01	 1.412E+00	
 6.000E+01	 9.211E-01	
 6.500E+01	 3.924E-01	
 7.000E+01	-1.585E-01	
 7.500E+01	-7.213E-01	